##NAMES=Iron
##RRUFFID=R070255
##IDEAL CHEMISTRY=Fe
##LOCALITY=Camp Creek district, Silver Bow County, Montana, USA
##OWNER=RRUFF
##SOURCE=Michael Scott
##DESCRIPTION=Steel-gray anhedral grains
##STATUS=The identification of this mineral is not yet confirmed.
##URL=rruff.info/R070255
154.6372, 805.0137
156.5656, 831.2145
158.4941, 849.8261
160.4226, 854.2739
162.3510, 861.0236
164.2795, 877.5013
166.2080, 909.8209
168.1364, 935.3320
170.0649, 949.2869
171.9934, 956.1504
173.9218, 965.1000
175.8503, 977.7144
177.7788, 990.9878
179.7072, 1004.034
181.6357, 1018.604
183.5642, 1030.243
185.4926, 1034.856
187.4211, 1036.238
189.3496, 1042.125
191.2780, 1059.661
193.2065, 1077.128
195.1350, 1090.537
197.0634, 1099.411
198.9919, 1105.759
200.9204, 1106.471
202.8488, 1105.406
204.7773, 1109.872
206.7058, 1129.207
208.6342, 1144.208
210.5627, 1144.098
212.4912, 1128.001
214.4196, 1118.701
216.3481, 1122.606
218.2766, 1133.665
220.2050, 1142.581
222.1335, 1150.576
224.0620, 1155.780
225.9904, 1156.445
227.9189, 1149.629
229.8474, 1147.247
231.7758, 1153.740
233.7043, 1163.329
235.6328, 1167.828
237.5612, 1163.269
239.4897, 1158.958
241.4182, 1158.158
243.3466, 1162.386
245.2751, 1166.776
247.2036, 1171.772
249.1320, 1176.687
251.0605, 1181.060
252.9890, 1184.905
254.9174, 1187.746
256.8459, 1188.722
258.7744, 1188.649
260.7029, 1189.486
262.6313, 1193.646
264.5598, 1197.280
266.4883, 1197.765
268.4167, 1188.079
270.3452, 1182.768
272.2737, 1186.632
274.2021, 1197.417
276.1306, 1206.177
278.0591, 1211.781
279.9875, 1214.888
281.9160, 1215.008
283.8445, 1210.545
285.7729, 1207.396
287.7014, 1207.484
289.6299, 1209.890
291.5583, 1212.332
293.4868, 1214.068
295.4153, 1216.367
297.3437, 1220.953
299.2722, 1228.375
301.2007, 1232.870
303.1291, 1228.707
305.0576, 1221.319
306.9861, 1221.510
308.9145, 1237.333
310.8430, 1251.777
312.7715, 1258.703
314.6999, 1258.612
316.6284, 1259.283
318.5569, 1265.926
320.4853, 1272.104
322.4138, 1268.106
324.3423, 1247.308
326.2707, 1232.870
328.1992, 1235.249
330.1277, 1253.179
332.0561, 1265.592
333.9846, 1268.707
335.9131, 1269.728
337.8415, 1273.924
339.7700, 1282.169
341.6985, 1286.337
343.6269, 1280.452
345.5554, 1270.121
347.4839, 1266.316
349.4123, 1275.694
351.3408, 1282.845
353.2693, 1282.376
355.1977, 1275.018
357.1262, 1270.583
359.0547, 1269.829
360.9831, 1271.522
362.9116, 1277.232
364.8401, 1289.948
366.7685, 1297.950
368.6970, 1296.114
370.6255, 1286.239
372.5539, 1277.932
374.4824, 1267.650
376.4109, 1261.796
378.3393, 1265.358
380.2678, 1277.531
382.1963, 1286.291
384.1247, 1287.704
386.0532, 1286.270
387.9817, 1286.364
389.9101, 1289.862
391.8386, 1292.329
393.7671, 1290.560
395.6955, 1284.149
397.6240, 1280.977
399.5525, 1285.971
401.4809, 1294.064
403.4094, 1298.748
405.3379, 1297.596
407.2663, 1296.513
409.1948, 1300.890
411.1233, 1309.822
413.0517, 1315.045
414.9802, 1310.211
416.9087, 1304.852
418.8371, 1305.101
420.7656, 1310.597
422.6941, 1313.518
424.6225, 1309.201
426.5510, 1302.811
428.4795, 1300.056
430.4079, 1305.475
432.3364, 1310.269
434.2649, 1309.223
436.1933, 1305.479
438.1218, 1305.116
440.0503, 1310.746
441.9787, 1316.758
443.9072, 1323.369
445.8357, 1331.156
447.7641, 1337.774
449.6926, 1343.107
451.6211, 1345.832
453.5495, 1344.389
455.4780, 1336.087
457.4065, 1329.738
459.3349, 1327.151
461.2634, 1327.752
463.1919, 1330.919
465.1203, 1337.833
467.0488, 1344.665
468.9773, 1350.121
470.9057, 1354.431
472.8342, 1356.938
474.7627, 1356.045
476.6911, 1354.196
478.6196, 1352.055
480.5481, 1349.277
482.4765, 1347.225
484.4050, 1347.894
486.3335, 1353.547
488.2619, 1364.377
490.1904, 1385.608
492.1189, 1395.677
494.0473, 1384.123
495.9758, 1362.860
497.9043, 1352.695
499.8327, 1365.800
501.7612, 1375.902
503.6897, 1375.869
505.6181, 1366.210
507.5466, 1361.994
509.4751, 1364.899
511.4035, 1369.286
513.3320, 1372.072
515.2604, 1372.309
517.1889, 1374.502
519.1174, 1378.478
521.0458, 1383.533
522.9743, 1389.681
524.9028, 1398.425
526.8312, 1404.675
528.7597, 1405.716
530.6882, 1403.517
532.6166, 1404.424
534.5451, 1412.527
536.4736, 1419.673
538.4020, 1423.195
540.3305, 1424.011
542.2590, 1424.850
544.1874, 1418.920
546.1159, 1411.767
548.0444, 1408.466
549.9728, 1415.832
551.9013, 1423.528
553.8298, 1426.299
555.7582, 1425.514
557.6867, 1423.593
559.6152, 1422.137
561.5436, 1426.830
563.4721, 1439.261
565.4006, 1453.767
567.3290, 1460.700
569.2575, 1458.605
571.1860, 1453.725
573.1144, 1449.898
575.0429, 1449.446
576.9714, 1453.604
578.8998, 1459.493
580.8283, 1461.053
582.7568, 1454.854
584.6852, 1445.668
586.6137, 1443.818
588.5422, 1448.984
590.4706, 1454.576
592.3991, 1457.925
594.3276, 1461.953
596.2560, 1463.753
598.1845, 1462.428
600.1130, 1462.199
602.0414, 1468.391
603.9699, 1475.552
605.8984, 1478.464
607.8268, 1479.320
609.7553, 1480.586
611.6838, 1480.501
613.6122, 1473.321
615.5407, 1471.543
617.4692, 1481.003
619.3976, 1493.814
621.3261, 1498.428
623.2546, 1495.228
625.1830, 1493.067
627.1115, 1492.546
629.0400, 1491.523
630.9684, 1495.658
632.8969, 1508.515
634.8254, 1521.440
636.7538, 1532.284
638.6823, 1541.462
640.6108, 1543.215
642.5392, 1530.573
644.4677, 1518.415
646.3962, 1514.492
648.3246, 1521.272
650.2531, 1530.612
652.1816, 1543.342
654.1100, 1553.004
656.0385, 1558.178
657.9670, 1555.588
659.8954, 1550.521
661.8239, 1544.408
663.7524, 1543.776
665.6808, 1553.555
667.6093, 1567.560
669.5378, 1574.705
671.4662, 1565.963
673.3947, 1555.039
675.3232, 1550.699
677.2516, 1556.410
679.1801, 1564.009
681.1086, 1576.678
683.0370, 1588.304
684.9655, 1589.866
686.8940, 1578.690
688.8224, 1569.382
690.7509, 1568.315
692.6794, 1570.357
694.6078, 1568.985
696.5363, 1563.422
698.4648, 1558.050
700.3932, 1551.644
702.3217, 1547.508
704.2502, 1549.390
706.1786, 1561.259
708.1071, 1568.748
710.0356, 1566.913
711.9641, 1558.851
713.8925, 1554.613
715.8210, 1555.178
717.7495, 1556.713
719.6779, 1557.391
721.6064, 1560.832
723.5349, 1565.307
725.4633, 1574.369
727.3918, 1574.927
729.3203, 1562.341
731.2487, 1542.780
733.1772, 1532.521
735.1057, 1536.785
737.0341, 1543.060
738.9626, 1547.544
740.8911, 1549.736
742.8195, 1548.606
744.7480, 1536.811
746.6765, 1529.244
748.6049, 1534.610
750.5334, 1554.645
752.4619, 1564.592
754.3903, 1557.485
756.3188, 1546.539
758.2473, 1538.201
760.1757, 1532.681
762.1042, 1527.129
764.0327, 1518.491
765.9611, 1511.530
767.8896, 1509.396
769.8181, 1513.679
771.7465, 1517.989
773.6750, 1524.329
775.6035, 1528.931
777.5319, 1528.348
779.4604, 1522.572
781.3889, 1520.087
783.3173, 1525.752
785.2458, 1532.237
787.1743, 1536.083
789.1027, 1536.010
791.0312, 1534.484
792.9597, 1528.926
794.8881, 1525.323
796.8166, 1526.660
798.7451, 1531.532
800.6735, 1534.608
802.6020, 1535.271
804.5305, 1535.384
806.4589, 1533.467
808.3874, 1531.221
810.3159, 1531.750
812.2443, 1537.767
814.1728, 1542.376
816.1013, 1542.899
818.0297, 1540.350
819.9582, 1540.270
821.8867, 1547.289
823.8151, 1553.107
825.7436, 1552.854
827.6721, 1546.224
829.6005, 1542.002
831.5290, 1539.544
833.4575, 1538.483
835.3859, 1543.606
837.3144, 1556.536
839.2429, 1564.606
841.1713, 1559.176
843.0998, 1552.396
845.0283, 1553.805
846.9567, 1563.957
848.8852, 1570.271
850.8137, 1569.358
852.7421, 1566.834
854.6706, 1566.759
856.5991, 1570.784
858.5275, 1575.728
860.4560, 1581.159
862.3845, 1587.075
864.3129, 1596.909
866.2414, 1604.153
868.1699, 1603.051
870.0983, 1591.014
872.0268, 1584.874
873.9553, 1586.551
875.8837, 1590.490
877.8122, 1592.558
879.7407, 1590.494
881.6691, 1587.894
883.5976, 1588.415
885.5261, 1595.211
887.4545, 1603.225
889.3830, 1611.072
891.3115, 1615.505
893.2399, 1618.072
895.1684, 1616.912
897.0969, 1615.553
899.0253, 1616.534
900.9538, 1622.646
902.8823, 1635.607
904.8107, 1645.247
906.7392, 1646.678
908.6677, 1636.498
910.5961, 1626.582
912.5246, 1621.672
914.4531, 1625.944
916.3815, 1630.117
918.3100, 1628.953
920.2385, 1628.439
922.1669, 1637.918
924.0954, 1654.907
926.0239, 1658.497
927.9523, 1645.883
929.8808, 1634.933
931.8093, 1636.336
933.7377, 1642.478
935.6662, 1646.726
937.5947, 1652.730
939.5231, 1660.178
941.4516, 1667.247
943.3801, 1666.925
945.3085, 1662.495
947.2370, 1658.564
949.1655, 1659.363
951.0939, 1667.323
953.0224, 1676.424
954.9509, 1682.609
956.8793, 1685.320
958.8078, 1686.825
960.7363, 1689.645
962.6647, 1694.434
964.5932, 1695.633
966.5217, 1689.010
968.4501, 1685.304
970.3786, 1688.039
972.3071, 1695.416
974.2355, 1701.613
976.1640, 1707.367
978.0925, 1713.277
980.0209, 1717.098
981.9494, 1716.513
983.8779, 1711.583
985.8063, 1707.272
987.7348, 1711.715
989.6633, 1722.002
991.5917, 1731.324
993.5202, 1735.017
995.4487, 1738.749
997.3771, 1739.833
999.3056, 1738.904
1001.234, 1740.569
1003.163, 1746.412
1005.091, 1750.268
1007.019, 1751.180
1008.948, 1753.885
1010.876, 1756.338
1012.805, 1757.697
1014.733, 1760.206
1016.662, 1769.342
1018.590, 1773.673
1020.519, 1770.729
1022.447, 1770.144
1024.376, 1778.089
1026.304, 1783.643
1028.233, 1780.718
1030.161, 1787.380
1032.090, 1799.163
1034.018, 1806.575
1035.947, 1805.304
1037.875, 1803.844
1039.803, 1808.058
1041.732, 1812.887
1043.660, 1816.500
1045.589, 1818.975
1047.517, 1821.010
1049.446, 1820.340
1051.374, 1823.319
1053.303, 1832.756
1055.231, 1842.210
1057.160, 1846.548
1059.088, 1845.733
1061.017, 1841.150
1062.945, 1838.481
1064.874, 1841.246
1066.802, 1847.787
1068.730, 1851.329
1070.659, 1851.642
1072.587, 1853.891
1074.516, 1853.813
1076.444, 1849.298
1078.373, 1843.531
1080.301, 1839.104
1082.230, 1838.897
1084.158, 1840.548
1086.087, 1840.927
1088.015, 1841.744
1089.944, 1845.402
1091.872, 1850.381
1093.801, 1851.534
1095.729, 1852.249
1097.657, 1861.002
1099.586, 1881.254
1101.514, 1896.322
1103.443, 1890.278
1105.371, 1876.721
1107.300, 1873.725
1109.228, 1882.882
1111.157, 1891.357
1113.085, 1895.564
1115.014, 1902.014
1116.942, 1912.396
1118.871, 1917.092
1120.799, 1912.641
1122.728, 1899.356
1124.656, 1894.455
1126.584, 1901.018
1128.513, 1904.467
1130.441, 1900.056
1132.370, 1888.209
1134.298, 1886.096
1136.227, 1904.146
1138.155, 1922.453
1140.084, 1930.377
1142.012, 1927.306
1143.941, 1927.220
1145.869, 1939.675
1147.798, 1947.402
1149.726, 1938.907
1151.655, 1920.261
1153.583, 1909.262
1155.511, 1906.988
1157.440, 1910.936
1159.368, 1926.990
1161.297, 1944.241
1163.225, 1948.790
1165.154, 1938.667
1167.082, 1933.263
1169.011, 1938.573
1170.939, 1947.456
1172.868, 1957.032
1174.796, 1966.416
1176.725, 1972.528
1178.653, 1970.775
1180.582, 1972.864
1182.510, 1982.974
1184.438, 1995.120
1186.367, 2004.047
1188.295, 2009.683
1190.224, 2013.159
1192.152, 2011.667
1194.081, 2010.630
1196.009, 2015.777
1197.938, 2024.582
1199.866, 2026.643
1201.795, 2018.227
1203.723, 2011.337
1205.652, 2009.936
1207.580, 2011.865
1209.509, 2015.834
1211.437, 2021.920
1213.365, 2029.163
1215.294, 2038.966
1217.222, 2048.782
1219.151, 2058.115
1221.079, 2066.076
1223.008, 2069.561
1224.936, 2063.219
1226.865, 2061.368
1228.793, 2069.338
1230.722, 2080.995
1232.650, 2089.900
1234.579, 2096.193
1236.507, 2103.298
1238.436, 2113.658
1240.364, 2121.158
1242.292, 2120.533
1244.221, 2116.532
1246.149, 2117.566
1248.078, 2124.862
1250.006, 2132.620
1251.935, 2143.022
1253.863, 2152.989
1255.792, 2156.859
1257.720, 2151.642
1259.649, 2152.132
1261.577, 2164.043
1263.506, 2174.919
1265.434, 2178.400
1267.363, 2177.763
1269.291, 2183.689
1271.219, 2200.714
1273.148, 2212.469
1275.076, 2211.274
1277.005, 2206.138
1278.933, 2201.516
1280.862, 2201.156
1282.790, 2206.781
1284.719, 2219.197
1286.647, 2230.557
1288.576, 2239.748
1290.504, 2249.247
1292.433, 2259.441
1294.361, 2271.830
1296.290, 2280.685
1298.218, 2280.775
1300.146, 2281.900
1302.075, 2289.275
1304.003, 2298.891
1305.932, 2305.911
1307.860, 2311.426
1309.789, 2322.163
1311.717, 2345.134
1313.646, 2365.390
1315.574, 2372.306
1317.503, 2366.662
1319.431, 2357.442
1321.360, 2342.001
1323.288, 2336.442
1325.217, 2351.447
1327.145, 2369.217
1329.073, 2378.092
1331.002, 2384.552
1332.930, 2391.375
1334.859, 2395.458
1336.787, 2396.964
1338.716, 2397.671
1340.644, 2399.642
1342.573, 2400.405
1344.501, 2392.982
1346.430, 2389.836
1348.358, 2405.189
1350.287, 2420.662
1352.215, 2421.335
1354.144, 2406.395
1356.072, 2397.347
1358.000, 2396.213
1359.929, 2403.810
1361.857, 2431.823
1363.786, 2460.413
1365.714, 2471.422
1367.643, 2461.419
1369.571, 2450.796
1371.500, 2442.408
1373.428, 2437.777
1375.357, 2438.054
1377.285, 2438.592
1379.214, 2436.059
1381.142, 2430.731
1383.071, 2424.141
1384.999, 2419.633
1386.927, 2422.302
1388.856, 2435.281
1390.784, 2445.036
1392.713, 2438.921
1394.641, 2421.810
1396.570, 2415.310
1398.498, 2421.779
1400.427, 2426.167
1402.355, 2425.923
1404.284, 2423.871
1406.212, 2419.640
1408.141, 2411.435
1410.069, 2410.970
1411.998, 2413.704
1413.926, 2414.895
1415.854, 2420.762
1417.783, 2432.621
1419.711, 2438.113
1421.640, 2425.441
1423.568, 2417.384
1425.497, 2410.917
1427.425, 2410.589
1429.354, 2425.466
1431.282, 2449.352
1433.211, 2457.339
1435.139, 2444.426
1437.068, 2437.934
1438.996, 2443.369
1440.925, 2447.178
1442.853, 2441.767
1444.781, 2433.078
1446.710, 2433.080
1448.638, 2443.770
1450.567, 2456.265
1452.495, 2467.798
1454.424, 2471.940
1456.352, 2467.247
1458.281, 2458.571
1460.209, 2451.289
1462.138, 2442.757
1464.066, 2440.376
1465.995, 2452.170
1467.923, 2463.022
1469.852, 2462.216
1471.780, 2453.660
1473.708, 2452.302
1475.637, 2460.936
1477.565, 2466.849
1479.494, 2465.314
1481.422, 2460.235
1483.351, 2454.683
1485.279, 2450.657
1487.208, 2451.876
1489.136, 2461.303
1491.065, 2467.455
1492.993, 2467.640
1494.922, 2462.469
1496.850, 2451.401
1498.779, 2440.511
1500.707, 2440.175
1502.635, 2451.892
1504.564, 2464.664
1506.492, 2490.284
1508.421, 2510.512
1510.349, 2507.874
1512.278, 2493.015
1514.206, 2490.070
1516.135, 2503.790
1518.063, 2517.406
1519.992, 2532.986
1521.920, 2542.905
1523.849, 2542.017
1525.777, 2538.070
1527.706, 2542.117
1529.634, 2554.587
1531.563, 2563.285
1533.491, 2565.284
1535.419, 2567.781
1537.348, 2572.637
1539.276, 2575.842
1541.205, 2573.414
1543.133, 2568.821
1545.062, 2581.362
1546.990, 2621.589
1548.919, 2651.205
1550.847, 2648.521
1552.776, 2641.895
1554.704, 2655.242
1556.633, 2680.050
1558.561, 2693.315
1560.490, 2692.235
1562.418, 2692.380
1564.346, 2696.917
1566.275, 2701.724
1568.203, 2705.585
1570.132, 2708.566
1572.060, 2709.247
1573.989, 2706.638
1575.917, 2709.413
1577.846, 2722.731
1579.774, 2736.740
1581.703, 2746.883
1583.631, 2753.314
1585.560, 2755.381
1587.488, 2753.750
1589.417, 2759.440
1591.345, 2777.419
1593.273, 2793.095
1595.202, 2802.959
1597.130, 2807.731
1599.059, 2807.065
1600.987, 2801.874
1602.916, 2794.756
1604.844, 2785.317
1606.773, 2774.620
1608.701, 2756.835
1610.630, 2745.777
1612.558, 2753.443
1614.487, 2769.552
1616.415, 2774.871
1618.344, 2768.047
1620.272, 2763.653
1622.200, 2767.242
1624.129, 2765.657
1626.057, 2750.123
1627.986, 2732.270
1629.914, 2722.561
1631.843, 2720.175
1633.771, 2715.515
1635.700, 2706.356
1637.628, 2701.045
1639.557, 2703.209
1641.485, 2707.048
1643.414, 2710.711
1645.342, 2714.556
1647.271, 2722.337
1649.199, 2736.348
1651.127, 2736.684
1653.056, 2712.499
1654.984, 2690.994
1656.913, 2674.405
1658.841, 2666.486
1660.770, 2675.546
1662.698, 2697.180
1664.627, 2706.914
1666.555, 2700.639
1668.484, 2695.333
1670.412, 2696.120
1672.341, 2694.181
1674.269, 2680.617
1676.198, 2666.369
1678.126, 2667.919
1680.054, 2686.198
1681.983, 2693.723
1683.911, 2680.928
1685.840, 2677.571
1687.768, 2701.348
1689.697, 2722.526
1691.625, 2722.696
1693.554, 2710.280
1695.482, 2701.914
1697.411, 2697.641
1699.339, 2697.518
1701.268, 2705.749
1703.196, 2710.625
1705.125, 2699.416
1707.053, 2693.259
1708.981, 2714.643
1710.910, 2753.415
1712.838, 2771.785
1714.767, 2766.411
1716.695, 2757.669
1718.624, 2741.961
1720.552, 2732.558
1722.481, 2737.861
1724.409, 2747.674
1726.338, 2753.715
1728.266, 2756.572
1730.195, 2759.085
1732.123, 2761.086
1734.052, 2763.756
1735.980, 2767.561
1737.908, 2771.617
1739.837, 2773.233
1741.765, 2776.754
1743.694, 2788.573
1745.622, 2806.638
1747.551, 2820.605
1749.479, 2830.357
1751.408, 2834.424
1753.336, 2830.215
1755.265, 2823.961
1757.193, 2816.673
1759.122, 2810.166
1761.050, 2803.781
1762.979, 2799.377
1764.907, 2807.751
1766.835, 2832.398
1768.764, 2853.040
1770.692, 2865.732
1772.621, 2873.411
1774.549, 2876.767
1776.478, 2876.253
1778.406, 2871.106
1780.335, 2862.459
1782.263, 2853.290
1784.192, 2842.016
1786.120, 2840.734
1788.049, 2859.240
1789.977, 2875.685
1791.906, 2878.267
1793.834, 2876.841
1795.762, 2881.179
1797.691, 2889.665
1799.619, 2895.353
1801.548, 2897.281
1803.476, 2901.635
1805.405, 2910.352
1807.333, 2919.712
1809.262, 2927.480
1811.190, 2936.548
1813.119, 2955.396
1815.047, 2976.683
1816.976, 2975.552
1818.904, 2942.526
1820.833, 2928.712
1822.761, 2949.740
1824.689, 2966.769
1826.618, 2969.243
1828.546, 2970.321
1830.475, 2981.136
1832.403, 2994.753
1834.332, 2996.634
1836.260, 2985.289
1838.189, 2981.646
1840.117, 2988.101
1842.046, 2997.973
1843.974, 3015.938
1845.903, 3030.505
1847.831, 3034.517
1849.760, 3034.707
1851.688, 3037.613
1853.616, 3043.279
1855.545, 3054.084
1857.473, 3073.416
1859.402, 3079.638
1861.330, 3063.179
1863.259, 3046.892
1865.187, 3034.090
1867.116, 3028.708
1869.044, 3036.402
1870.973, 3051.916
1872.901, 3067.639
1874.830, 3083.021
1876.758, 3088.881
1878.687, 3080.949
1880.615, 3077.008
1882.543, 3081.964
1884.472, 3090.960
1886.400, 3104.158
1888.329, 3118.185
1890.257, 3131.831
1892.186, 3143.272
1894.114, 3144.962
1896.043, 3135.387
1897.971, 3125.730
1899.900, 3106.773
1901.828, 3103.974
1903.757, 3141.556
1905.685, 3175.148
1907.614, 3171.595
1909.542, 3152.479
1911.470, 3149.554
1913.399, 3161.786
1915.327, 3173.564
1917.256, 3188.383
1919.184, 3194.381
1921.113, 3181.374
1923.041, 3173.368
1924.970, 3175.045
1926.898, 3184.033
1928.827, 3204.962
1930.755, 3229.106
1932.684, 3241.289
1934.612, 3242.096
1936.541, 3236.957
1938.469, 3224.031
1940.397, 3217.270
1942.326, 3224.617
1944.254, 3226.884
1946.183, 3203.514
1948.111, 3186.231
1950.040, 3205.117
1951.968, 3241.954
1953.897, 3270.413
1955.825, 3289.928
1957.754, 3291.279
1959.682, 3266.553
1961.611, 3251.594
1963.539, 3260.146
1965.468, 3265.344
1967.396, 3250.690
1969.324, 3240.490
1971.253, 3255.515
1973.181, 3283.444
1975.110, 3307.421
1977.038, 3327.028
1978.967, 3331.798
1980.895, 3313.256
1982.824, 3310.063
1984.752, 3335.810
1986.681, 3356.024
1988.609, 3355.468
1990.538, 3355.148
1992.466, 3373.116
1994.395, 3391.722
1996.323, 3381.414
1998.251, 3355.574
2000.180, 3363.757
2002.108, 3408.318
2004.037, 3428.200
2005.965, 3407.834
2007.894, 3390.449
2009.822, 3384.536
2011.751, 3386.083
2013.679, 3398.228
2015.608, 3412.629
2017.536, 3424.358
2019.465, 3431.906
2021.393, 3429.369
2023.322, 3416.401
2025.250, 3411.810
2027.178, 3416.025
2029.107, 3428.046
2031.035, 3457.240
2032.964, 3478.380
2034.892, 3485.165
2036.821, 3482.505
2038.749, 3461.412
2040.678, 3441.240
2042.606, 3449.234
2044.535, 3474.372
2046.463, 3485.938
2048.392, 3483.759
2050.320, 3482.142
2052.249, 3481.899
2054.177, 3483.444
2056.105, 3491.968
2058.034, 3494.852
2059.962, 3477.610
2061.891, 3465.500
2063.819, 3479.898
2065.748, 3506.152
2067.676, 3527.778
2069.605, 3543.884
2071.533, 3548.899
2073.462, 3541.415
2075.390, 3532.647
2077.319, 3519.826
2079.247, 3516.243
2081.176, 3527.212
2083.104, 3541.805
2085.032, 3561.561
2086.961, 3576.724
2088.889, 3573.794
2090.818, 3567.987
2092.746, 3582.408
2094.675, 3608.845
2096.603, 3618.826
2098.532, 3610.382
2100.460, 3610.034
2102.389, 3626.846
2104.317, 3633.867
2106.246, 3621.234
2108.174, 3612.525
2110.103, 3616.267
2112.031, 3620.685
2113.959, 3619.021
2115.888, 3616.006
2117.816, 3613.323
2119.745, 3613.870
2121.673, 3627.759
2123.602, 3651.758
2125.530, 3664.377
2127.459, 3663.403
2129.387, 3665.940
2131.316, 3678.715
2133.244, 3683.426
2135.173, 3662.106
2137.101, 3651.923
2139.030, 3677.221
2140.958, 3705.713
2142.886, 3714.759
2144.815, 3713.891
2146.743, 3711.315
2148.672, 3709.797
2150.600, 3723.559
2152.529, 3751.095
2154.457, 3759.008
2156.386, 3742.512
2158.314, 3734.506
2160.243, 3745.902
2162.171, 3748.079
2164.100, 3716.231
2166.028, 3697.224
2167.957, 3720.771
2169.885, 3751.787
2171.813, 3765.395
2173.742, 3770.619
2175.670, 3780.180
2177.599, 3791.254
2179.527, 3792.228
2181.456, 3783.271
2183.384, 3786.239
2185.313, 3803.420
2187.241, 3816.220
2189.170, 3822.097
2191.098, 3824.847
2193.027, 3822.607
2194.955, 3822.498
2196.884, 3828.065
2198.812, 3835.715
2200.740, 3846.285
2202.669, 3855.069
2204.597, 3852.826
2206.526, 3847.118
2208.454, 3857.464
2210.383, 3880.530
2212.311, 3884.664
2214.240, 3868.738
2216.168, 3871.717
2218.097, 3901.211
2220.025, 3916.605
2221.954, 3904.973
2223.882, 3895.724
2225.811, 3899.769
2227.739, 3904.799
2229.667, 3905.592
2231.596, 3906.146
2233.524, 3909.083
2235.453, 3913.363
2237.381, 3920.357
2239.310, 3926.677
2241.238, 3922.458
2243.167, 3910.167
2245.095, 3905.321
2247.024, 3907.917
2248.952, 3906.298
2250.881, 3896.918
2252.809, 3901.574
2254.738, 3931.641
2256.666, 3957.731
2258.594, 3980.025
2260.523, 3988.076
2262.451, 3961.969
2264.380, 3941.232
2266.308, 3957.213
2268.237, 3979.323
2270.165, 3974.135
2272.094, 3961.789
2274.022, 3978.840
2275.951, 4011.160
2277.879, 4018.398
2279.808, 4003.834
2281.736, 4002.661
2283.665, 4020.408
2285.593, 4023.389
2287.521, 3992.582
2289.450, 3981.837
2291.378, 4005.154
2293.307, 4023.236
2295.235, 4024.411
2297.164, 4028.789
2299.092, 4044.401
2301.021, 4063.571
2302.949, 4088.776
2304.878, 4108.363
2306.806, 4106.700
2308.735, 4098.025
2310.663, 4102.070
2312.592, 4114.295
2314.520, 4121.095
2316.448, 4124.549
2318.377, 4146.337
2320.305, 4187.007
2322.234, 4202.224
2324.162, 4186.080
2326.091, 4194.772
2328.019, 4245.739
2329.948, 4277.362
2331.876, 4274.408
2333.805, 4255.839
2335.733, 4202.188
2337.662, 4168.259
2339.590, 4198.979
2341.519, 4223.289
2343.447, 4181.687
2345.375, 4138.205
2347.304, 4157.656
2349.232, 4193.894
2351.161, 4190.150
2353.089, 4165.822
2355.018, 4153.846
2356.946, 4153.011
2358.875, 4159.426
2360.803, 4173.032
2362.732, 4189.411
2364.660, 4210.058
2366.589, 4225.087
2368.517, 4235.830
2370.446, 4228.826
2372.374, 4194.539
2374.302, 4174.887
2376.231, 4187.875
2378.159, 4196.961
2380.088, 4183.184
2382.016, 4176.037
2383.945, 4189.081
2385.873, 4207.646
2387.802, 4234.239
2389.730, 4251.726
2391.659, 4237.493
2393.587, 4217.406
2395.516, 4214.287
2397.444, 4223.466
2399.373, 4243.888
2401.301, 4269.125
2403.229, 4283.288
2405.158, 4288.207
2407.086, 4293.950
2409.015, 4300.550
2410.943, 4299.857
2412.872, 4291.470
2414.800, 4294.598
2416.729, 4312.771
2418.657, 4316.065
2420.586, 4293.771
2422.514, 4281.040
2424.443, 4285.220
2426.371, 4296.249
2428.300, 4322.753
2430.228, 4340.007
2432.156, 4334.330
2434.085, 4332.799
2436.013, 4350.500
2437.942, 4367.120
2439.870, 4377.801
2441.799, 4375.336
2443.727, 4333.988
2445.656, 4298.489
2447.584, 4324.868
2449.513, 4371.506
2451.441, 4387.479
2453.370, 4383.560
2455.298, 4373.497
2457.227, 4361.221
2459.155, 4354.610
2461.083, 4354.157
2463.012, 4363.091
2464.940, 4380.572
2466.869, 4395.173
2468.797, 4407.471
2470.726, 4408.166
2472.654, 4395.281
2474.583, 4392.034
2476.511, 4400.314
2478.440, 4416.274
2480.368, 4445.679
2482.297, 4457.802
2484.225, 4434.130
2486.154, 4416.582
2488.082, 4409.270
2490.010, 4409.748
2491.939, 4422.548
2493.867, 4433.122
2495.796, 4432.604
2497.724, 4437.299
2499.653, 4457.694
2501.581, 4480.891
2503.510, 4505.687
2505.438, 4524.197
2507.367, 4534.354
2509.295, 4532.758
2511.224, 4502.486
2513.152, 4473.989
2515.081, 4483.758
2517.009, 4502.366
2518.938, 4488.178
2520.866, 4467.697
2522.794, 4488.727
2524.723, 4528.794
2526.651, 4543.458
2528.580, 4539.090
2530.508, 4526.226
2532.437, 4511.447
2534.365, 4520.125
2536.294, 4547.136
2538.222, 4565.963
2540.151, 4576.434
2542.079, 4577.588
2544.008, 4569.081
2545.936, 4553.063
2547.865, 4528.720
2549.793, 4528.686
2551.721, 4556.317
2553.650, 4561.372
2555.578, 4530.326
2557.507, 4524.230
2559.435, 4572.554
2561.364, 4591.644
2563.292, 4563.901
2565.221, 4565.475
2567.149, 4618.823
2569.078, 4643.616
2571.006, 4612.387
2572.935, 4584.540
2574.863, 4576.430
2576.792, 4569.929
2578.720, 4553.688
2580.648, 4552.434
2582.577, 4577.447
2584.505, 4605.038
2586.434, 4628.219
2588.362, 4651.223
2590.291, 4688.866
2592.219, 4707.399
2594.148, 4674.907
2596.076, 4644.157
2598.005, 4638.731
2599.933, 4644.718
2601.862, 4661.271
2603.790, 4678.218
2605.719, 4691.465
2607.647, 4699.934
2609.575, 4697.731
2611.504, 4696.577
2613.432, 4713.756
2615.361, 4726.957
2617.289, 4705.172
2619.218, 4683.784
2621.146, 4698.858
2623.075, 4723.688
2625.003, 4739.640
2626.932, 4741.658
2628.860, 4704.714
2630.789, 4667.825
2632.717, 4694.412
2634.646, 4739.676
2636.574, 4741.732
2638.502, 4728.595
2640.431, 4740.298
2642.359, 4762.922
2644.288, 4776.142
2646.216, 4781.981
2648.145, 4781.982
2650.073, 4778.732
2652.002, 4776.378
2653.930, 4774.984
2655.859, 4775.027
2657.787, 4775.935
2659.716, 4777.186
2661.644, 4777.905
2663.573, 4773.327
2665.501, 4767.343
2667.429, 4768.270
2669.358, 4777.064
2671.286, 4804.537
2673.215, 4838.648
2675.143, 4830.625
2677.072, 4799.216
2679.000, 4824.595
2680.929, 4881.851
2682.857, 4881.259
2684.786, 4842.737
2686.714, 4837.437
2688.643, 4856.593
2690.571, 4868.708
2692.500, 4873.411
2694.428, 4858.017
2696.356, 4835.354
2698.285, 4865.203
2700.213, 4929.188
2702.142, 4955.604
2704.070, 4949.445
2705.999, 4925.506
2707.927, 4890.034
2709.856, 4872.730
2711.784, 4872.485
2713.713, 4894.211
2715.641, 4928.027
2717.570, 4930.184
2719.498, 4910.402
2721.427, 4917.915
2723.355, 4943.302
2725.283, 4935.588
2727.212, 4907.507
2729.140, 4902.213
2731.069, 4914.356
2732.997, 4929.512
2734.926, 4943.927
2736.854, 4938.235
2738.783, 4920.396
2740.711, 4919.943
2742.640, 4932.022
2744.568, 4946.125
2746.497, 4959.495
2748.425, 4962.150
2750.354, 4958.464
2752.282, 4964.474
2754.210, 4973.064
2756.139, 4961.170
2758.067, 4940.712
2759.996, 4935.672
2761.924, 4942.369
2763.853, 4956.885
2765.781, 4974.388
2767.710, 4985.360
2769.638, 4991.686
2771.567, 4993.766
2773.495, 4995.977
2775.424, 5010.036
2777.352, 5025.240
2779.281, 5017.838
2781.209, 5006.089
2783.137, 5017.521
2785.066, 5039.250
2786.994, 5062.745
2788.923, 5081.362
2790.851, 5084.963
2792.780, 5081.750
2794.708, 5077.380
2796.637, 5074.653
2798.565, 5082.771
2800.494, 5085.549
2802.422, 5056.473
2804.351, 5030.653
2806.279, 5039.731
2808.208, 5060.896
2810.136, 5089.789
2812.064, 5108.533
2813.993, 5091.966
2815.921, 5080.485
2817.850, 5111.509
2819.778, 5134.697
2821.707, 5121.276
2823.635, 5103.011
2825.564, 5086.977
2827.492, 5081.040
2829.421, 5091.626
2831.349, 5108.054
2833.278, 5134.563
2835.206, 5151.232
2837.135, 5151.783
2839.063, 5145.274
2840.991, 5127.072
2842.920, 5115.545
2844.848, 5107.197
2846.777, 5124.621
2848.705, 5182.163
2850.634, 5211.169
2852.562, 5189.629
2854.491, 5180.105
2856.419, 5196.286
2858.348, 5209.049
2860.276, 5218.035
2862.205, 5225.985
2864.133, 5233.574
2866.062, 5222.317
2867.990, 5188.036
2869.918, 5176.423
2871.847, 5187.360
2873.775, 5205.718
2875.704, 5227.574
2877.632, 5222.597
2879.561, 5199.142
2881.489, 5201.654
2883.418, 5223.714
2885.346, 5248.874
2887.275, 5269.508
2889.203, 5257.265
2891.132, 5234.676
2893.060, 5245.569
2894.989, 5270.085
2896.917, 5278.858
2898.845, 5273.680
2900.774, 5294.735
2902.702, 5306.948
2904.631, 5310.793
2906.559, 5281.211
2908.488, 5294.794
2910.416, 5291.078
2912.345, 5286.653
2914.273, 5306.311
2916.202, 5281.590
2918.130, 5300.866
2920.059, 5302.580
2921.987, 5312.331
2923.916, 5295.855
2925.844, 5304.435
2927.772, 5319.791
2929.701, 5334.873
2931.629, 5352.328
2933.558, 5357.346
2935.486, 5346.258
2937.415, 5345.641
2939.343, 5359.427
2941.272, 5378.845
2943.200, 5406.978
2945.129, 5389.653
2947.057, 5335.833
2948.986, 5336.202
2950.914, 5377.750
2952.843, 5380.786
2954.771, 5361.125
2956.699, 5370.646
2958.628, 5395.371
2960.556, 5414.182
2962.485, 5421.463
2964.413, 5397.124
2966.342, 5369.958
2968.270, 5373.292
2970.199, 5387.318
2972.127, 5412.390
2974.056, 5419.442
2975.984, 5363.732
2977.913, 5327.556
2979.841, 5367.435
2981.770, 5397.634
2983.698, 5392.806
2985.626, 5383.727
2987.555, 5375.475
2989.483, 5371.283
2991.412, 5371.947
2993.340, 5373.868
2995.269, 5376.874
2997.197, 5378.333
2999.126, 5377.621
3001.054, 5386.395
3002.983, 5402.508
3004.911, 5388.749
3006.840, 5361.313
3008.768, 5388.455
3010.697, 5437.173
3012.625, 5416.167
3014.553, 5378.506
3016.482, 5420.674
3018.410, 5475.025
3020.339, 5479.702
3022.267, 5464.387
3024.196, 5427.636
3026.124, 5417.198
3028.053, 5473.270
3029.981, 5520.011
3031.910, 5526.810
3033.838, 5517.283
3035.767, 5486.956
3037.695, 5472.148
3039.624, 5481.659
3041.552, 5473.177
3043.480, 5434.346
3045.409, 5423.931
3047.337, 5440.430
3049.266, 5437.763
3051.194, 5425.368
3053.123, 5455.797
3055.051, 5505.510
3056.980, 5509.882
3058.908, 5496.611
3060.837, 5516.161
3062.765, 5531.413
3064.694, 5492.005
3066.622, 5453.261
3068.551, 5452.338
3070.479, 5468.001
3072.407, 5506.302
3074.336, 5528.946
3076.264, 5504.745
3078.193, 5503.574
3080.121, 5539.807
3082.050, 5550.886
3083.978, 5525.559
3085.907, 5534.164
3087.835, 5578.998
3089.764, 5583.137
3091.692, 5558.297
3093.621, 5551.789
3095.549, 5555.045
3097.478, 5547.855
3099.406, 5540.536
3101.334, 5547.184
3103.263, 5561.004
3105.191, 5585.292
3107.120, 5601.944
3109.048, 5597.830
3110.977, 5587.891
3112.905, 5573.581
3114.834, 5562.165
3116.762, 5553.267
3118.691, 5554.305
3120.619, 5566.005
3122.548, 5587.056
3124.476, 5614.014
3126.405, 5606.267
3128.333, 5575.800
3130.261, 5571.831
3132.190, 5585.190
3134.118, 5605.262
3136.047, 5623.044
3137.975, 5625.579
3139.904, 5625.945
3141.832, 5634.967
3143.761, 5641.330
3145.689, 5640.810
3147.618, 5635.715
3149.546, 5624.772
3151.475, 5611.282
3153.403, 5593.678
3155.332, 5602.109
3157.260, 5638.910
3159.188, 5669.635
3161.117, 5690.727
3163.045, 5671.558
3164.974, 5639.893
3166.902, 5647.742
3168.831, 5668.121
3170.759, 5672.883
3172.688, 5673.984
3174.616, 5670.137
3176.545, 5679.659
3178.473, 5738.757
3180.402, 5747.830
3182.330, 5681.086
3184.259, 5645.781
3186.187, 5660.594
3188.115, 5673.859
3190.044, 5685.727
3191.972, 5708.624
3193.901, 5733.177
3195.829, 5733.482
3197.758, 5726.453
3199.686, 5734.087
3201.615, 5747.355
3203.543, 5762.996
3205.472, 5776.405
3207.400, 5795.334
3209.329, 5786.171
3211.257, 5731.627
3213.186, 5722.441
3215.114, 5783.260
3217.042, 5801.160
3218.971, 5779.154
3220.899, 5750.437
3222.828, 5724.177
3224.756, 5718.173
3226.685, 5728.683
3228.613, 5772.992
3230.542, 5799.468
3232.470, 5751.629
3234.399, 5717.509
3236.327, 5747.918
3238.256, 5764.565
3240.184, 5757.980
3242.113, 5739.410
3244.041, 5708.327
3245.969, 5720.996
3247.898, 5765.379
3249.826, 5793.462
3251.755, 5803.884
3253.683, 5777.208
3255.612, 5754.143
3257.540, 5780.812
3259.469, 5808.091
3261.397, 5808.366
3263.326, 5813.962
3265.254, 5835.272
3267.183, 5843.833
3269.111, 5836.923
3271.040, 5839.754
3272.968, 5850.161
3274.896, 5852.144
3276.825, 5843.561
3278.753, 5807.186
3280.682, 5777.797
3282.610, 5797.538
3284.539, 5824.932
3286.467, 5846.056
3288.396, 5858.513
3290.324, 5859.046
3292.253, 5853.462
3294.181, 5841.924
3296.110, 5846.334
3298.038, 5861.377
3299.967, 5853.041
3301.895, 5818.407
3303.823, 5843.649
3305.752, 5860.050
3307.680, 5868.082
3309.609, 5842.689
3311.537, 5860.459
3313.466, 5860.932
3315.394, 5860.693
3317.323, 5884.540
3319.251, 5864.006
3321.180, 5887.471
3323.108, 5893.372
3325.037, 5907.312
3326.965, 5903.845
3328.894, 5905.756
3330.822, 5925.076
3332.750, 5934.754
3334.679, 5929.286
3336.607, 5889.511
3338.536, 5883.991
3340.464, 5917.658
3342.393, 5939.882
3344.321, 5959.806
3346.250, 5970.888
3348.178, 5973.603
3350.107, 5942.890
3352.035, 5955.342
3353.964, 5950.496
3355.892, 5944.940
3357.821, 5963.467
3359.749, 5937.616
3361.677, 5955.762
3363.606, 5956.345
3365.534, 5964.966
3367.463, 5956.182
3369.391, 5952.773
3371.320, 5966.776
3373.248, 5971.138
3375.177, 5953.160
3377.105, 5964.668
3379.034, 5928.225
3380.962, 5932.630
3382.891, 5991.551
3384.819, 5999.639
3386.748, 5963.106
3388.676, 5953.877
3390.604, 5958.568
3392.533, 5958.181
3394.461, 5954.470
3396.390, 5939.543
3398.318, 5940.885
3400.247, 5975.812
3402.175, 5990.928
3404.104, 5973.589
3406.032, 5997.652
3407.961, 6045.626
3409.889, 6041.583
3411.818, 6020.711
3413.746, 6038.523
3415.675, 6058.976
3417.603, 6063.442
3419.531, 6058.505
3421.460, 6042.690
3423.388, 6033.024
3425.317, 6030.744
3427.245, 6029.588
3429.174, 6030.390
3431.102, 6033.138
3433.031, 6043.534
3434.959, 6080.888
3436.888, 6102.255
3438.816, 6084.281
3440.745, 6072.742
3442.673, 6078.198
3444.602, 6074.126
3446.530, 6062.816
3448.458, 6061.699
3450.387, 6065.853
3452.315, 6069.170
3454.244, 6073.293
3456.172, 6078.006
3458.101, 6086.602
3460.029, 6107.319
3461.958, 6111.089
3463.886, 6100.139
3465.815, 6105.065
3467.743, 6111.248
3469.672, 6069.260
3471.600, 6036.333
3473.529, 6064.496
3475.457, 6100.248
3477.385, 6139.749
3479.314, 6129.222
3481.242, 6067.856
3483.171, 6063.316
3485.099, 6096.137
3487.028, 6106.242
3488.956, 6111.006
3490.885, 6126.693
3492.813, 6143.401
3494.742, 6161.806
3496.670, 6161.583
3498.599, 6136.679
3500.527, 6115.477
3502.456, 6103.842
3504.384, 6131.900
3506.313, 6168.686
3508.241, 6189.415
3510.169, 6193.658
3512.098, 6177.290
3514.026, 6161.141
3515.955, 6145.746
3517.883, 6164.309
3519.812, 6198.360
3521.740, 6188.410
3523.669, 6171.601
3525.597, 6197.696
3527.526, 6212.249
3529.454, 6186.669
3531.383, 6160.757
3533.311, 6137.622
3535.240, 6148.702
3537.168, 6178.848
3539.096, 6190.992
3541.025, 6192.813
3542.953, 6185.304
3544.882, 6184.295
3546.810, 6207.804
3548.739, 6192.522
3550.667, 6140.313
3552.596, 6120.903
3554.524, 6127.680
3556.453, 6154.043
3558.381, 6182.791
3560.310, 6210.007
3562.238, 6215.057
3564.167, 6188.880
3566.095, 6204.401
3568.023, 6254.686
3569.952, 6236.862
3571.880, 6195.412
3573.809, 6183.409
3575.737, 6193.196
3577.666, 6236.930
3579.594, 6256.481
3581.523, 6241.718
3583.451, 6211.264
3585.380, 6175.392
3587.308, 6167.653
3589.237, 6177.384
3591.165, 6202.544
3593.094, 6232.295
3595.022, 6269.479
3596.950, 6271.096
3598.879, 6235.895
3600.807, 6203.932
3602.736, 6183.397
3604.664, 6190.442
3606.593, 6207.995
3608.521, 6231.679
3610.450, 6244.473
3612.378, 6240.217
3614.307, 6236.037
3616.235, 6231.796
3618.164, 6224.675
3620.092, 6220.614
3622.021, 6227.863
3623.949, 6236.186
3625.877, 6242.719
3627.806, 6250.677
3629.734, 6259.703
3631.663, 6263.285
3633.591, 6266.876
3635.520, 6283.186
3637.448, 6293.938
3639.377, 6290.802
3641.305, 6276.918
3643.234, 6251.940
3645.162, 6286.963
3647.091, 6342.519
3649.019, 6326.789
3650.948, 6301.868
3652.876, 6308.161
3654.804, 6309.689
3656.733, 6294.303
3658.661, 6297.996
3660.590, 6320.951
3662.518, 6383.956
3664.447, 6421.646
3666.375, 6353.673
3668.304, 6307.783
3670.232, 6343.250
3672.161, 6346.029
3674.089, 6320.496
3676.018, 6276.926
3677.946, 6248.436
3679.875, 6286.558
3681.803, 6320.593
3683.731, 6321.680
3685.660, 6318.135
3687.588, 6310.359
3689.517, 6289.314
3691.445, 6273.859
3693.374, 6291.632
3695.302, 6322.305
3697.231, 6377.323
3699.159, 6389.333
3701.088, 6361.571
3703.016, 6325.699
3704.945, 6300.073
3706.873, 6322.928
3708.802, 6345.706
3710.730, 6343.993
3712.658, 6353.647
3714.587, 6373.072
3716.515, 6363.422
3718.444, 6345.554
3720.372, 6353.866
3722.301, 6360.105
3724.229, 6341.842
3726.158, 6360.422
3728.086, 6410.617
3730.015, 6408.859
3731.943, 6387.914
3733.872, 6390.374
3735.800, 6401.747
3737.729, 6427.863
3739.657, 6414.926
3741.585, 6370.033
3743.514, 6368.365
3745.442, 6382.333
3747.371, 6378.525
3749.299, 6371.739
3751.228, 6362.791
3753.156, 6370.934
3755.085, 6392.802
3757.013, 6407.627
3758.942, 6418.877
3760.870, 6430.058
3762.799, 6439.627
3764.727, 6447.806
3766.656, 6449.128
3768.584, 6445.365
3770.512, 6445.007
3772.441, 6441.907
3774.369, 6429.196
3776.298, 6413.176
3778.226, 6389.559
3780.155, 6414.392
3782.083, 6461.876
3784.012, 6465.039
3785.940, 6459.397
3787.869, 6470.674
3789.797, 6464.847
3791.726, 6434.556
3793.654, 6447.130
3795.583, 6473.229
3797.511, 6463.555
3799.439, 6447.964
3801.368, 6436.897
3803.296, 6438.636
3805.225, 6451.454
3807.153, 6455.493
3809.082, 6451.161
3811.010, 6428.421
3812.939, 6422.208
3814.867, 6441.612
3816.796, 6466.347
3818.724, 6490.517
3820.653, 6503.238
3822.581, 6501.639
3824.510, 6465.239
3826.438, 6460.027
3828.366, 6492.297
3830.295, 6515.912
3832.223, 6524.659
3834.152, 6502.560
3836.080, 6477.397
3838.009, 6458.295
3839.937, 6447.703
3841.866, 6448.702
3843.794, 6483.012
3845.723, 6514.172
3847.651, 6500.820
3849.580, 6490.989
3851.508, 6504.525
3853.437, 6518.894
3855.365, 6522.777
3857.293, 6462.707
3859.222, 6444.424
3861.150, 6554.356
3863.079, 6570.084
3865.007, 6495.355
3866.936, 6462.754
3868.864, 6447.629
3870.793, 6422.422
3872.721, 6414.128
3874.650, 6434.062
3876.578, 6438.289
3878.507, 6433.466
3880.435, 6437.621
3882.364, 6433.749
3884.292, 6407.512
3886.220, 6423.593
3888.149, 6472.520
3890.077, 6438.248
3892.006, 6392.594
3893.934, 6399.996
3895.863, 6427.702
3897.791, 6467.898
3899.720, 6426.024
3901.648, 6357.953
3903.577, 6375.628
3905.505, 6388.241
3907.434, 6354.518
3909.362, 6329.211
3911.291, 6317.542
3913.219, 6339.023
3915.147, 6351.031
3917.076, 6317.222
3919.004, 6281.151
3920.933, 6251.083
3922.861, 6290.172
3924.790, 6337.887
3926.718, 6316.334
3928.647, 6299.080
3930.575, 6309.790
3932.504, 6324.247
3934.432, 6326.896
3936.361, 6295.094
3938.289, 6279.833
3940.218, 6308.480
3942.146, 6319.411
3944.074, 6303.007
3946.003, 6298.553
3947.931, 6296.473
3949.860, 6269.051
3951.788, 6244.340
3953.717, 6230.021
3955.645, 6212.625
3957.574, 6201.915
3959.502, 6206.652
3961.431, 6213.677
3963.359, 6238.327
3965.288, 6228.684
3967.216, 6201.685
3969.145, 6211.185
3971.073, 6215.944
3973.001, 6220.006
3974.930, 6231.716
3976.858, 6224.314
3978.787, 6216.398
3980.715, 6207.734
3982.644, 6159.356
3984.572, 6152.584
3986.501, 6174.759
3988.429, 6159.815
3990.358, 6150.566
3992.286, 6156.518
3994.215, 6172.318
3996.143, 6187.914
3998.072, 6168.672
4000.000, 6137.833
4001.928, 6122.374
4003.857, 6102.182
4005.785, 6100.444
4007.714, 6139.304
4009.642, 6165.517
4011.571, 6159.631
4013.499, 6128.621
4015.428, 6103.076
4017.356, 6075.206
4019.285, 6041.258
4021.213, 6062.523
4023.142, 6100.192
4025.070, 6110.522
4026.999, 6098.108
4028.927, 6086.912
4030.855, 6087.736
4032.784, 6104.677
4034.712, 6096.436
4036.641, 6051.336
4038.569, 6028.560
4040.498, 6015.417
4042.426, 6023.145
4044.355, 6033.702
4046.283, 6025.993
4048.212, 6038.882
4050.140, 6077.934
4052.069, 6076.746
4053.997, 6024.275
4055.926, 6006.670
4057.854, 6010.095
4059.782, 6014.456
4061.711, 6018.278
4063.639, 6034.099
4065.568, 6042.600
4067.496, 6031.205
4069.425, 6011.903
4071.353, 6021.512
4073.282, 6035.023
4075.210, 6001.591
4077.139, 5981.315
4079.067, 5997.106
4080.996, 5994.729
4082.924, 5974.076
4084.853, 5975.815
4086.781, 5984.569
4088.709, 5965.382
4090.638, 5943.166
4092.566, 5917.800
4094.495, 5949.988
4096.423, 5990.299
4098.352, 5988.073
4100.280, 5971.567
4102.208, 5945.951
4104.137, 5931.588
4106.065, 5924.734
4107.994, 5926.246
4109.922, 5931.157
4111.851, 5937.516
4113.779, 5941.875
4115.708, 5942.421
4117.636, 5941.607
4119.565, 5935.300
4121.493, 5924.434
4123.422, 5913.688
4125.350, 5906.453
4127.279, 5909.934
4129.207, 5908.817
4131.136, 5899.938
4133.064, 5889.453
4134.993, 5885.314
4136.921, 5899.122
4138.850, 5908.542
4140.778, 5912.346
4142.707, 5902.026
4144.635, 5889.158
4146.563, 5886.716
4148.492, 5887.212
4150.420, 5884.183
4152.349, 5891.018
4154.277, 5900.136
4156.206, 5896.066
4158.134, 5888.601
4160.063, 5876.875
4161.991, 5858.859
4163.919, 5848.616
4165.848, 5867.261
4167.776, 5876.214
4169.705, 5869.485
4171.633, 5861.828
4173.562, 5856.464
4175.490, 5874.710
4177.419, 5871.399
4179.347, 5833.728
4181.276, 5820.978
4183.204, 5809.074
4185.133, 5774.378
4187.061, 5779.213
4188.990, 5837.948
4190.918, 5877.084
4192.847, 5887.630
4194.775, 5870.637
4196.704, 5851.848
4198.632, 5830.626
4200.561, 5846.681
4202.489, 5862.849
4204.417, 5839.215
4206.346, 5814.334
4208.274, 5795.746
4210.203, 5821.341
4212.131, 5848.369
4214.060, 5851.238
4215.988, 5836.792
4217.917, 5808.679
4219.845, 5839.387
4221.773, 5864.639
4223.702, 5820.459
4225.630, 5792.506
4227.559, 5788.626
4229.487, 5807.217
4231.416, 5827.166
4233.344, 5849.086
4235.273, 5841.890
4237.201, 5811.904
4239.130, 5801.020
4241.058, 5797.555
4242.987, 5790.789
4244.915, 5824.079
4246.844, 5870.586
4248.772, 5847.229
4250.701, 5839.615
4252.629, 5914.580
4254.558, 5901.596
4256.486, 5847.478
4258.415, 5846.253
4260.343, 5854.677
4262.271, 5859.329
4264.200, 5869.352
4266.128, 5881.247
4268.057, 5893.187
4269.985, 5893.880
4271.914, 5881.752
4273.842, 5920.271
4275.771, 5952.354
4277.699, 5899.482
4279.627, 5876.319
4281.556, 5894.550
4283.484, 5954.197
4285.413, 6002.835
4287.341, 5990.587
4289.270, 6000.299
4291.198, 6017.896
4293.127, 5973.811
4295.055, 5939.963
4296.984, 5954.398
4298.912, 5953.836
4300.841, 5955.993
4302.769, 6015.688
4304.698, 6037.338
4306.626, 5992.704
4308.555, 5996.793
4310.483, 6017.098
4312.412, 6021.985
4314.340, 6029.836
4316.269, 6040.798
4318.197, 6030.296
4320.125, 6024.401
4322.054, 6037.663
4323.982, 6069.747
4325.911, 6108.676
4327.839, 6129.853
4329.768, 6132.281
4331.696, 6115.347
4333.625, 6090.791
4335.553, 6077.496
4337.481, 6109.300
4339.410, 6120.072
4341.338, 6105.552
4343.267, 6118.148
4345.195, 6138.458
4347.124, 6156.189
4349.052, 6159.384
4350.981, 6147.010
4352.909, 6098.069
4354.838, 6087.688
4356.766, 6141.212
4358.695, 6190.703
4360.623, 6211.008
4362.552, 6145.566
4364.480, 6145.177
4366.409, 6215.474
4368.337, 6224.492
4370.266, 6200.951
4372.194, 6142.926
4374.123, 6134.264
4376.051, 6162.768
4377.979, 6219.228
4379.908, 6224.534
4381.836, 6143.461
4383.765, 6171.355
4385.693, 6227.024
4387.622, 6235.999
4389.550, 6220.509
4391.479, 6190.048
4393.407, 6154.909
4395.335, 6161.273
4397.264, 6232.621
4399.192, 6256.936
4401.121, 6261.133
4403.049, 6304.700
4404.978, 6296.859
4406.906, 6240.397
4408.835, 6240.671
4410.763, 6241.855
4412.692, 6199.656
4414.620, 6218.507
4416.549, 6269.132
4418.477, 6285.119
4420.406, 6299.640
4422.334, 6320.695
4424.263, 6355.802
4426.191, 6366.989
4428.120, 6308.762
4430.048, 6267.118
4431.977, 6249.233
4433.905, 6253.988
4435.833, 6309.444
4437.762, 6419.494
4439.690, 6388.829
4441.619, 6328.720
4443.547, 6329.057
4445.476, 6338.248
4447.404, 6348.914
4449.333, 6362.911
4451.261, 6367.017
4453.189, 6357.856
4455.118, 6351.472
4457.046, 6348.179
4458.975, 6355.217
4460.903, 6327.974
4462.832, 6293.392
4464.760, 6346.681
4466.689, 6409.312
4468.617, 6461.066
4470.546, 6409.915
4472.474, 6358.646
4474.403, 6391.463
4476.331, 6421.012
4478.260, 6433.833
4480.188, 6409.142
4482.117, 6397.957
4484.045, 6412.622
4485.974, 6463.763
4487.902, 6488.355
4489.831, 6409.918
4491.759, 6394.328
4493.688, 6414.193
4495.616, 6403.477
4497.544, 6400.551
4499.473, 6410.878
4501.401, 6400.104
4503.330, 6407.456
4505.258, 6455.600
4507.187, 6485.309
4509.115, 6489.851
4511.043, 6453.389
4512.972, 6430.632
4514.900, 6429.090
4516.829, 6443.366
4518.757, 6471.490
4520.686, 6521.034
4522.614, 6492.595
4524.543, 6455.542
4526.471, 6479.567
4528.400, 6490.800
4530.328, 6486.775
4532.257, 6464.351
4534.185, 6482.673
4536.114, 6540.070
4538.042, 6520.659
4539.971, 6488.850
4541.899, 6482.949
4543.828, 6516.027
4545.756, 6543.266
4547.685, 6477.726
4549.613, 6467.793
4551.542, 6507.947
4553.470, 6492.486
4555.398, 6501.187
4557.327, 6553.314
4559.255, 6577.594
4561.184, 6580.460
4563.112, 6559.993
4565.041, 6570.883
4566.969, 6587.808
4568.897, 6547.434
4570.826, 6546.220
4572.754, 6583.226
4574.683, 6581.473
4576.611, 6566.870
4578.540, 6550.368
4580.468, 6574.350
4582.397, 6602.782
4584.325, 6611.493
4586.254, 6579.748
4588.182, 6540.603
4590.111, 6558.175
4592.039, 6574.156
4593.968, 6582.427
4595.896, 6592.864
4597.825, 6614.176
4599.753, 6645.088
4601.682, 6624.859
4603.610, 6597.142
4605.539, 6591.062
4607.467, 6616.411
4609.396, 6642.771
4611.324, 6614.981
4613.252, 6624.622
4615.181, 6658.519
4617.109, 6637.420
4619.038, 6615.225
4620.966, 6608.776
4622.895, 6647.606
4624.823, 6681.968
4626.751, 6687.166
4628.680, 6624.387
4630.608, 6587.339
4632.537, 6685.961
4634.465, 6695.503
4636.394, 6653.509
4638.322, 6657.511
4640.251, 6652.886
4642.179, 6641.253
4644.108, 6672.474
4646.036, 6690.804
4647.965, 6678.443
4649.893, 6623.021
4651.822, 6609.327
4653.750, 6683.035
4655.679, 6684.780
4657.607, 6671.929
4659.536, 6729.161
4661.464, 6714.754
4663.393, 6668.207
4665.321, 6676.146
4667.250, 6686.052
4669.178, 6691.899
4671.106, 6708.932
4673.035, 6704.840
4674.963, 6679.748
4676.892, 6703.846
4678.820, 6730.798
4680.749, 6736.055
4682.677, 6762.119
4684.605, 6776.082
4686.534, 6751.552
4688.462, 6756.847
4690.391, 6760.666
4692.319, 6700.789
4694.248, 6693.749
4696.176, 6719.970
4698.105, 6716.979
4700.033, 6716.783
4701.962, 6724.446
4703.890, 6741.402
4705.819, 6752.882
4707.747, 6738.012
4709.676, 6772.676
4711.604, 6792.227
4713.533, 6797.475
4715.461, 6745.585
4717.390, 6767.478
4719.318, 6759.801
4721.247, 6750.912
4723.175, 6783.188
4725.104, 6739.610
4727.032, 6771.233
4728.960, 6772.837
4730.889, 6788.181
4732.817, 6773.773
4734.746, 6768.555
4736.674, 6793.097
4738.603, 6801.160
4740.531, 6783.327
4742.459, 6799.544
4744.388, 6754.926
4746.316, 6763.691
4748.245, 6796.137
4750.173, 6818.700
4752.102, 6792.334
4754.030, 6730.026
4755.959, 6726.197
4757.887, 6826.291
4759.816, 6867.540
4761.744, 6855.505
4763.673, 6781.819
4765.601, 6754.166
4767.530, 6758.593
4769.458, 6786.742
4771.387, 6765.792
4773.315, 6742.156
4775.244, 6796.047
4777.172, 6812.661
4779.101, 6816.617
4781.029, 6887.079
4782.958, 6901.194
4784.886, 6862.152
4786.814, 6788.539
4788.743, 6785.117
4790.671, 6838.274
4792.600, 6832.069
4794.528, 6830.801
4796.457, 6846.897
4798.385, 6886.216
4800.313, 6880.558
4802.242, 6822.715
4804.170, 6829.409
4806.099, 6836.662
4808.027, 6824.317
4809.956, 6827.827
4811.884, 6833.835
4813.813, 6835.940
4815.741, 6819.245
4817.670, 6812.421
4819.598, 6830.189
4821.527, 6870.003
4823.455, 6883.623
4825.384, 6833.445
4827.312, 6837.376
4829.241, 6832.515
4831.169, 6767.492
4833.098, 6811.734
4835.026, 6856.000
4836.955, 6769.651
4838.883, 6829.938
4840.812, 6897.057
4842.740, 6822.665
4844.668, 6838.586
4846.597, 6876.681
4848.525, 6833.371
4850.454, 6819.550
4852.382, 6828.333
4854.311, 6847.195
4856.239, 6866.151
4858.167, 6879.516
4860.096, 6885.099
4862.024, 6863.965
4863.953, 6837.264
4865.881, 6835.495
4867.810, 6844.663
4869.738, 6852.647
4871.667, 6834.638
4873.595, 6855.282
4875.524, 6888.016
4877.452, 6882.811
4879.381, 6862.814
4881.309, 6854.554
4883.238, 6914.630
4885.166, 6931.320
4887.095, 6912.452
4889.023, 6878.192
4890.952, 6864.093
4892.880, 6864.478
4894.809, 6863.334
4896.737, 6873.409
4898.666, 6884.398
4900.594, 6876.271
4902.522, 6863.894
4904.451, 6859.032
4906.379, 6883.579
4908.308, 6885.250
4910.236, 6865.995
4912.165, 6817.538
4914.093, 6851.095
4916.021, 6908.552
4917.950, 6884.881
4919.878, 6919.588
4921.807, 6960.593
4923.735, 6890.648
4925.664, 6887.564
4927.592, 6910.360
4929.521, 6888.856
4931.449, 6912.081
4933.378, 6946.026
4935.306, 6948.608
4937.235, 6883.436
4939.163, 6818.650
4941.092, 6834.960
4943.020, 6809.703
4944.949, 6815.854
4946.877, 6929.806
4948.806, 6922.730
4950.734, 6877.101
4952.663, 6874.906
4954.591, 6874.135
4956.520, 6858.978
4958.448, 6819.800
4960.376, 6896.266
4962.305, 6939.332
4964.233, 6856.540
4966.162, 6851.662
4968.090, 6876.101
4970.019, 6902.078
4971.947, 6877.168
4973.875, 6872.570
4975.804, 6906.868
4977.732, 6896.908
4979.661, 6874.712
4981.589, 6856.237
4983.518, 6872.818
4985.446, 6888.295
4987.375, 6889.762
4989.303, 6854.364
4991.232, 6861.309
4993.160, 6898.082
4995.089, 6860.258
4997.017, 6841.508
4998.946, 6855.910
5000.874, 6904.718
5002.803, 6932.606
5004.731, 6932.954
5006.660, 6897.911
5008.588, 6882.716
5010.517, 6883.216
5012.445, 6896.812
5014.374, 6845.514
5016.302, 6798.931
5018.230, 6826.478
5020.159, 6854.669
5022.087, 6872.223
5024.016, 6873.878
5025.944, 6859.252
5027.873, 6870.655
5029.801, 6917.972
5031.729, 6871.164
5033.658, 6846.360
5035.586, 6876.843
5037.515, 6874.763
5039.443, 6878.737
5041.372, 6882.892
5043.300, 6794.788
5045.229, 6820.774
5047.157, 6909.540
5049.086, 6856.994
5051.014, 6818.294
5052.943, 6822.807
5054.871, 6916.015
5056.800, 6891.179
5058.728, 6845.106
5060.657, 6886.629
5062.585, 6847.873
5064.514, 6810.729
5066.442, 6840.764
5068.371, 6852.058
5070.299, 6867.329
5072.228, 6890.594
5074.156, 6823.214
5076.084, 6841.662
5078.013, 6930.733
5079.941, 6833.101
5081.870, 6771.432
5083.798, 6772.944
5085.727, 6806.798
5087.655, 6840.094
5089.583, 6845.336
5091.512, 6783.971
5093.440, 6817.076
5095.369, 6854.167
5097.297, 6799.545
5099.226, 6812.111
5101.154, 6827.675
5103.083, 6815.961
5105.011, 6803.287
5106.940, 6784.358
5108.868, 6769.881
5110.797, 6826.485
5112.725, 6813.264
5114.654, 6758.429
5116.582, 6782.660
5118.511, 6800.247
5120.439, 6793.275
5122.368, 6749.265
5124.296, 6769.162
5126.225, 6805.715
5128.153, 6824.340
5130.082, 6722.066
5132.010, 6688.346
5133.938, 6767.588
5135.867, 6759.658
5137.795, 6746.462
5139.724, 6751.261
5141.652, 6794.747
5143.581, 6801.622
5145.509, 6795.669
5147.438, 6828.432
5149.366, 6804.004
5151.294, 6747.889
5153.223, 6685.155
5155.151, 6692.158
5157.080, 6729.689
5159.008, 6773.038
5160.937, 6790.533
5162.865, 6772.507
5164.794, 6736.513
5166.722, 6722.211
5168.651, 6695.523
5170.579, 6698.263
5172.508, 6780.539
5174.436, 6781.151
5176.365, 6756.919
5178.293, 6746.411
5180.222, 6803.069
5182.150, 6807.240
5184.079, 6757.492
5186.007, 6764.632
5187.936, 6743.365
5189.864, 6722.175
5191.792, 6772.069
5193.721, 6728.976
5195.649, 6695.213
5197.578, 6747.917
5199.506, 6735.834
5201.435, 6721.854
5203.363, 6725.783
5205.292, 6754.895
5207.220, 6724.874
5209.148, 6675.248
5211.077, 6686.250
5213.005, 6719.508
5214.934, 6747.560
5216.862, 6753.354
5218.791, 6784.979
5220.719, 6765.896
5222.648, 6703.923
5224.576, 6726.334
5226.505, 6738.949
5228.433, 6741.354
5230.362, 6762.664
5232.290, 6756.976
5234.219, 6745.407
5236.147, 6741.280
5238.076, 6703.541
5240.004, 6695.287
5241.933, 6713.942
5243.861, 6684.717
5245.790, 6694.022
5247.718, 6714.185
5249.646, 6691.369
5251.575, 6706.936
5253.503, 6710.843
5255.432, 6681.869
5257.360, 6667.914
5259.289, 6628.570
5261.217, 6589.482
5263.146, 6632.724
5265.074, 6667.337
5267.002, 6675.280
5268.931, 6644.662
5270.859, 6669.873
5272.788, 6678.728
5274.716, 6663.833
5276.645, 6716.628
5278.573, 6662.227
5280.502, 6589.158
5282.430, 6650.717
5284.359, 6653.593
5286.287, 6650.400
5288.216, 6668.155
5290.144, 6682.254
5292.073, 6663.982
5294.001, 6641.785
5295.930, 6678.060
5297.858, 6703.473
5299.787, 6697.463
5301.715, 6651.772
5303.644, 6598.103
5305.572, 6611.587
5307.500, 6660.344
5309.429, 6608.461
5311.357, 6604.625
5313.286, 6633.277
5315.214, 6663.037
5317.143, 6635.470
5319.071, 6594.583
5321.000, 6570.348
5322.928, 6615.131
5324.856, 6645.091
5326.785, 6634.805
5328.713, 6571.332
5330.642, 6531.562
5332.570, 6566.279
5334.499, 6645.530
5336.427, 6622.091
5338.356, 6581.453
5340.284, 6548.718
5342.213, 6536.750
5344.141, 6543.667
5346.070, 6532.549
5347.998, 6508.754
5349.927, 6542.939
5351.855, 6583.098
5353.784, 6603.832
5355.712, 6589.437
5357.641, 6531.704
5359.569, 6512.136
5361.498, 6544.703
5363.426, 6587.561
5365.354, 6575.486
5367.283, 6532.137
5369.211, 6486.826
5371.140, 6462.370
5373.068, 6488.197
5374.997, 6531.004
5376.925, 6472.044
5378.854, 6482.295
5380.782, 6504.090
5382.710, 6479.750
5384.639, 6452.860
5386.567, 6464.405
5388.496, 6486.621
5390.424, 6434.285
5392.353, 6442.785
5394.281, 6466.958
5396.210, 6470.196
5398.138, 6451.727
5400.067, 6432.958
5401.995, 6428.456
5403.924, 6458.427
5405.852, 6477.859
5407.781, 6484.401
5409.709, 6480.139
5411.638, 6479.286
5413.566, 6447.793
5415.495, 6421.859
5417.423, 6438.344
5419.352, 6427.322
5421.280, 6427.697
5423.208, 6436.162
5425.137, 6404.973
5427.065, 6387.650
5428.994, 6371.362
5430.922, 6347.389
5432.851, 6342.952
5434.779, 6341.139
5436.708, 6360.366
5438.636, 6429.632
5440.564, 6404.274
5442.493, 6350.706
5444.421, 6312.913
5446.350, 6323.151
5448.278, 6373.745
5450.207, 6395.802
5452.135, 6342.107
5454.064, 6340.763
5455.992, 6349.358
5457.921, 6351.780
5459.849, 6341.363
5461.778, 6302.435
5463.706, 6277.940
5465.635, 6282.055
5467.563, 6306.437
5469.492, 6300.313
5471.420, 6285.379
5473.349, 6281.913
5475.277, 6291.448
5477.206, 6229.350
5479.134, 6181.602
5481.063, 6299.571
5482.991, 6329.487
5484.919, 6303.632
5486.848, 6260.611
5488.776, 6247.553
5490.705, 6247.504
5492.633, 6215.150
5494.562, 6142.294
5496.490, 6179.917
5498.418, 6217.630
5500.347, 6217.082
5502.275, 6153.804
5504.204, 6198.851
5506.132, 6180.201
5508.061, 6128.943
5509.989, 6191.414
5511.918, 6204.883
5513.846, 6199.945
5515.775, 6197.634
5517.703, 6203.020
5519.632, 6163.534
5521.560, 6132.901
5523.489, 6146.642
5525.417, 6167.593
5527.346, 6119.880
5529.274, 6082.525
5531.203, 6148.856
5533.131, 6163.977
5535.060, 6214.227
5536.988, 6247.744
5538.917, 6150.921
5540.845, 6112.484
5542.773, 6100.672
5544.702, 6105.960
5546.630, 6176.494
5548.559, 6126.496
5550.487, 6090.398
5552.416, 6123.013
5554.344, 6123.411
5556.272, 6053.031
5558.201, 6032.880
5560.129, 6128.138
5562.058, 6129.989
5563.986, 6152.673
5565.915, 6147.120
5567.843, 6060.055
5569.772, 6034.284
5571.700, 6064.750
5573.629, 6099.478
5575.557, 6080.729
5577.486, 6046.761
5579.414, 6019.942
5581.343, 6009.275
5583.271, 6021.293
5585.200, 6032.026
5587.128, 6018.859
5589.057, 6000.874
5590.985, 6038.639
5592.914, 6014.389
5594.842, 5979.224
5596.771, 5963.916
5598.699, 5969.914
5600.627, 6003.495
5602.556, 6006.694
5604.484, 5968.535
5606.413, 5977.438
5608.341, 5967.491
5610.270, 5972.005
5612.198, 5997.773
5614.126, 5923.695
5616.055, 5952.583
5617.983, 5985.371
5619.912, 5944.545
5621.840, 5911.684
5623.769, 5920.170
5625.697, 5909.676
5627.626, 5852.321
5629.554, 5905.413
5631.483, 5883.538
5633.411, 5866.152
5635.340, 5930.760
5637.268, 5946.345
5639.197, 5946.848
5641.125, 5916.632
5643.054, 5842.956
5644.982, 5884.265
5646.911, 5853.568
5648.839, 5808.039
5650.768, 5829.504
5652.696, 5849.549
5654.625, 5831.290
5656.553, 5823.272
5658.481, 5868.359
5660.410, 5933.025
5662.338, 5856.021
5664.267, 5783.441
5666.195, 5844.906
5668.124, 5814.471
5670.052, 5781.244
5671.980, 5772.255
5673.909, 5790.542
5675.837, 5782.166
5677.766, 5816.982
5679.694, 5814.587
5681.623, 5721.349
5683.551, 5753.989
5685.480, 5748.222
5687.408, 5719.560
5689.337, 5703.386
5691.265, 5705.358
5693.194, 5726.585
5695.122, 5744.370
5697.051, 5743.936
5698.979, 5724.081
5700.908, 5714.775
5702.836, 5711.851
5704.765, 5707.777
5706.693, 5684.043
5708.622, 5707.061
5710.550, 5724.108
5712.479, 5707.818
5714.407, 5659.502
5716.335, 5618.568
5718.264, 5651.511
5720.192, 5719.231
5722.121, 5679.029
5724.049, 5642.018
5725.978, 5667.310
5727.906, 5703.388
5729.834, 5646.380
5731.763, 5634.075
5733.691, 5606.309
5735.620, 5588.254
5737.548, 5627.360
5739.477, 5627.057
5741.405, 5595.418
5743.334, 5566.164
5745.262, 5568.718
5747.191, 5655.848
5749.119, 5610.893
5751.048, 5569.264
5752.976, 5627.662
5754.905, 5631.494
5756.833, 5645.711
5758.762, 5632.848
5760.690, 5589.139
5762.619, 5572.267
5764.547, 5575.344
5766.476, 5574.146
5768.404, 5554.877
5770.333, 5510.729
5772.261, 5581.314
5774.189, 5504.098
5776.118, 5397.464
5778.046, 5467.623
5779.975, 5480.785
5781.903, 5505.238
5783.832, 5509.683
5785.760, 5471.287
5787.688, 5465.145
5789.617, 5513.522
5791.545, 5546.828
5793.474, 5534.246
5795.402, 5493.971
5797.331, 5507.853
5799.259, 5505.893
5801.188, 5476.190
5803.116, 5446.098
5805.045, 5421.822
5806.973, 5406.736
5808.902, 5409.353
5810.830, 5431.281
5812.759, 5399.733
5814.687, 5440.926
5816.616, 5448.440
5818.544, 5397.287
5820.473, 5450.174
5822.401, 5403.488
5824.330, 5392.782
5826.258, 5410.333
5828.187, 5360.447
5830.115, 5370.937
5832.043, 5390.011
5833.972, 5388.073
5835.900, 5360.701
5837.829, 5351.208
5839.757, 5363.208
5841.686, 5352.535
5843.614, 5317.456
5845.542, 5317.404
5847.471, 5263.354
5849.399, 5284.909
5851.328, 5357.338
5853.256, 5400.242
5855.185, 5284.224
5857.113, 5289.663
5859.042, 5300.130
5860.970, 5245.040
5862.899, 5246.042
5864.827, 5282.552
5866.756, 5315.735
5868.684, 5310.051
5870.613, 5238.753
5872.541, 5213.025
5874.470, 5255.143
5876.398, 5259.449
5878.327, 5202.444
5880.255, 5284.157
5882.184, 5230.309
5884.112, 5219.880
5886.041, 5250.186
5887.969, 5219.399
5889.897, 5287.318
5891.826, 5235.174
5893.754, 5176.515
5895.683, 5191.348
5897.611, 5177.164
5899.540, 5233.863
5901.468, 5212.172
5903.396, 5149.158
5905.325, 5152.805
5907.253, 5123.488
5909.182, 5121.381
5911.110, 5140.704
5913.039, 5161.312
5914.967, 5156.292
5916.896, 5134.599
5918.824, 5140.273
5920.753, 5124.209
5922.681, 5041.580
5924.610, 5044.455
5926.538, 5103.951
5928.467, 5094.164
5930.395, 5038.140
5932.324, 5103.740
5934.252, 5135.174
5936.181, 5075.127
5938.109, 5021.715
5940.038, 5038.292
5941.966, 5076.479
5943.895, 5053.153
5945.823, 5050.021
5947.751, 5071.880
5949.680, 5084.285
5951.608, 5017.030
5953.537, 5022.963
5955.465, 5035.772
5957.394, 5029.065
5959.322, 5034.438
5961.250, 5043.562
5963.179, 4999.609
5965.107, 5004.562
5967.036, 5071.480
5968.964, 5013.838
5970.893, 4951.807
5972.821, 4986.325
5974.750, 5030.796
5976.678, 5000.607
5978.607, 5003.310
5980.535, 4995.841
5982.464, 4984.691
5984.392, 4969.536
5986.321, 4948.478
5988.249, 4967.575
5990.178, 4904.786
5992.106, 4889.612
5994.035, 4951.936
5995.963, 5009.846
5997.892, 4955.891
5999.820, 4950.759
6001.749, 4957.542
6003.677, 4934.365
6005.605, 4888.122
6007.534, 4938.017
6009.462, 4879.577
6011.391, 4861.244
6013.319, 4949.098
6015.248, 4937.296
6017.176, 4871.144
6019.104, 4867.187
6021.033, 4876.190
6022.961, 4849.116
6024.890, 4839.457
6026.818, 4875.272
6028.747, 4854.880
6030.675, 4833.980
6032.604, 4864.434
6034.532, 4818.034
6036.461, 4834.041
6038.389, 4848.348
6040.318, 4822.826
6042.246, 4774.682
6044.175, 4858.805
6046.103, 4845.386
6048.032, 4815.893
6049.960, 4832.882
6051.889, 4897.216
6053.817, 4887.028
6055.746, 4912.670
6057.674, 4888.693
6059.603, 4859.882
6061.531, 4881.253
6063.459, 4816.894
6065.388, 4832.675
6067.316, 4790.429
6069.245, 4719.638
6071.173, 4701.257
6073.102, 4752.626
6075.030, 4748.208
6076.958, 4761.220
6078.887, 4744.061
6080.815, 4673.743
6082.744, 4748.462
6084.672, 4771.433
6086.601, 4750.820
6088.529, 4701.421
6090.458, 4651.223
6092.386, 4676.400
6094.315, 4697.860
6096.243, 4657.131
6098.172, 4625.662
6100.100, 4637.045
6102.029, 4622.021
6103.957, 4673.231
6105.886, 4672.429
6107.814, 4657.127
6109.743, 4655.288
6111.671, 4647.039
6113.600, 4657.064
6115.528, 4608.326
6117.457, 4577.456
6119.385, 4598.131
6121.313, 4641.668
6123.242, 4626.727
6125.170, 4579.320
6127.099, 4562.999
6129.027, 4562.523
6130.956, 4548.027
6132.884, 4579.979
6134.813, 4602.709
6136.741, 4576.429
6138.669, 4595.274
6140.598, 4653.083
6142.526, 4520.509
6144.455, 4581.030
6146.383, 4554.114
6148.312, 4512.874
6150.240, 4512.442
6152.169, 4502.727
6154.097, 4489.030
6156.026, 4498.905
6157.954, 4517.092
6159.883, 4516.748
6161.811, 4492.847
6163.740, 4506.359
6165.668, 4530.738
6167.597, 4529.661
6169.525, 4523.521
6171.454, 4525.098
6173.382, 4511.589
6175.311, 4461.628
6177.239, 4447.282
6179.167, 4456.244
6181.096, 4452.323
6183.024, 4425.189
6184.953, 4487.429
6186.881, 4386.108
6188.810, 4363.550
6190.738, 4387.663
6192.667, 4375.972
6194.595, 4377.422
6196.523, 4417.808
6198.452, 4431.602
6200.380, 4417.032
6202.309, 4392.052
6204.237, 4372.130
6206.166, 4362.488
6208.094, 4365.287
6210.023, 4359.461
6211.951, 4323.306
6213.880, 4288.107
6215.808, 4352.031
6217.737, 4320.602
6219.665, 4289.605
6221.594, 4313.188
6223.522, 4349.000
6225.451, 4340.578
6227.379, 4314.329
6229.308, 4323.147
6231.236, 4294.742
6233.165, 4288.297
6235.093, 4304.507
6237.021, 4276.482
6238.950, 4249.772
6240.878, 4248.361
6242.807, 4243.502
6244.735, 4240.059
6246.664, 4251.595
6248.592, 4280.223
6250.521, 4263.295
6252.449, 4280.063
6254.377, 4236.739
6256.306, 4187.860
6258.234, 4199.167
6260.163, 4198.011
6262.091, 4142.445
6264.020, 4167.514
6265.948, 4189.519
6267.877, 4191.461
6269.805, 4200.471
6271.734, 4170.350
6273.662, 4164.383
6275.591, 4196.324
6277.519, 4180.166
6279.448, 4130.660
6281.376, 4121.218
6283.305, 4125.456
6285.233, 4166.390
6287.162, 4173.595
6289.090, 4152.858
6291.019, 4129.835
6292.947, 4118.368
6294.875, 4106.966
6296.804, 4091.099
6298.732, 4097.690
6300.661, 4107.666
6302.589, 4105.521
6304.518, 4093.821
6306.446, 4092.994
6308.375, 4113.893
6310.303, 4067.665
6312.231, 4043.120
6314.160, 4065.705
6316.088, 4079.050
6318.017, 4059.937
6319.945, 4046.256
6321.874, 4058.338
6323.802, 4040.226
6325.731, 4013.796
6327.659, 4021.046
6329.588, 3981.507
6331.516, 4003.634
6333.445, 3978.746
6335.373, 3954.129
6337.302, 3963.180
6339.230, 3987.751
6341.159, 3976.147
6343.087, 3994.163
6345.016, 3957.742
6346.944, 3981.588
6348.873, 4010.642
6350.801, 3980.091
6352.729, 3959.683
6354.658, 3897.782
6356.586, 3892.609
6358.515, 3922.091
6360.443, 3924.600
6362.372, 3886.308
6364.300, 3854.141
6366.229, 3965.925
6368.157, 3914.043
6370.085, 3914.815
6372.014, 3933.292
6373.942, 3931.615
6375.871, 3916.900
6377.799, 3864.043
6379.728, 3856.781
6381.656, 3865.242
6383.585, 3895.236
6385.513, 3905.628
6387.442, 3873.434
6389.370, 3837.619
6391.299, 3886.160
6393.227, 3856.316
6395.156, 3845.242
6397.084, 3845.967
6399.013, 3838.730
6400.941, 3823.773
6402.870, 3783.301
6404.798, 3777.178
6406.727, 3811.334
6408.655, 3785.095
6410.583, 3784.123
6412.512, 3828.117
6414.440, 3800.092
6416.369, 3785.759
6418.297, 3730.813
6420.226, 3730.875
6422.154, 3766.394
6424.083, 3763.436
6426.011, 3708.317
6427.939, 3698.760
6429.868, 3762.197
6431.796, 3707.172
6433.725, 3723.153
6435.653, 3759.721
6437.582, 3747.006
6439.510, 3704.937
6441.439, 3727.156
6443.367, 3741.468
6445.296, 3710.989
6447.224, 3688.507
6449.153, 3676.609
6451.081, 3666.324
6453.010, 3657.576
6454.938, 3640.965
6456.867, 3679.678
6458.795, 3679.470
6460.724, 3690.199
6462.652, 3675.803
6464.581, 3635.895
6466.509, 3629.679
6468.438, 3646.333
6470.366, 3707.511
6472.294, 3645.976
6474.223, 3614.944
6476.151, 3577.083
6478.080, 3544.134
6480.008, 3613.087
6481.937, 3710.012
6483.865, 3647.775
6485.793, 3607.639
6487.722, 3607.041
6489.650, 3571.832
6491.579, 3559.677
6493.507, 3632.328
6495.436, 3598.085
6497.364, 3618.382
6499.293, 3596.489
6501.221, 3588.820
6503.150, 3517.129
6505.078, 3452.206
6507.007, 3485.407
6508.935, 3507.246
6510.864, 3497.253
6512.792, 3542.859
6514.721, 3523.612
6516.649, 3554.864
6518.578, 3553.431
6520.506, 3510.173
6522.435, 3567.165
6524.363, 3459.825
6526.292, 3446.550
6528.220, 3494.769
6530.148, 3505.139
6532.077, 3497.871
6534.005, 3484.877
6535.934, 3460.238
6537.862, 3508.545
6539.791, 3440.002
6541.719, 3456.303
6543.647, 3450.632
6545.576, 3485.171
6547.504, 3489.910
6549.433, 3438.970
6551.361, 3433.065
6553.290, 3427.875
6555.218, 3350.646
6557.147, 3354.224
6559.075, 3376.950
6561.004, 3350.686
6562.932, 3293.848
6564.861, 3261.437
6566.789, 3211.823
6568.718, 3214.791
6570.646, 3265.416
6572.575, 3228.422
6574.503, 3199.318
6576.432, 3174.381
6578.360, 3160.824
6580.289, 3184.660
6582.217, 3130.294
6584.146, 3114.483
6586.074, 3090.243
6588.002, 3087.425
6589.931, 3076.485
6591.859, 3035.975
6593.788, 3059.417
6595.716, 3043.375
6597.645, 2975.586
6599.573, 2955.147
6601.501, 2962.116
6603.430, 2933.470
6605.358, 2896.104
6607.287, 2875.227
6609.215, 2894.186
6611.144, 2884.765
6613.072, 2843.715
6615.001, 2862.034
6616.929, 2841.609
6618.858, 2798.829
6620.786, 2786.869
6622.715, 2806.752
##END=



